##NAMES=Soddyite
##RRUFFID=R060361
##IDEAL CHEMISTRY=(UO_2_)_2_SiO_4_&#183;2H_2_O
##LOCALITY=Musonoi Extension, near Kolwezi, Shaba Province, Zaire
##OWNER=RRUFF
##SOURCE=Michael Scott
##DESCRIPTION=Yellow pyramidal crystals associated with light green malachite and dark green brochantite
##STATUS=The identification of this mineral has been confirmed by single-crystal X-ray diffraction.
##LASER_WAVELENGTH=780
##URL=rruff.info/R060361
107.9252, 831.4121
108.4073, 833.1594
108.8894, 839.9602
109.3715, 848.9200
109.8536, 855.5815
110.3358, 860.6728
110.8179, 862.4740
111.3000, 859.3690
111.7821, 851.6688
112.2642, 842.2263
112.7463, 830.7722
113.2285, 818.7757
113.7106, 807.4041
114.1927, 796.6738
114.6748, 787.2048
115.1569, 780.0877
115.6390, 775.7374
116.1212, 772.6931
116.6033, 770.8743
117.0854, 769.7465
117.5675, 768.7261
118.0496, 767.4472
118.5317, 766.1545
119.0139, 766.0535
119.4960, 767.9724
119.9781, 770.3624
120.4602, 773.5162
120.9423, 776.9279
121.4244, 779.7927
121.9066, 781.4592
122.3887, 781.8395
122.8708, 782.1923
123.3529, 782.5372
123.8350, 782.8451
124.3171, 783.1359
124.7993, 783.3932
125.2814, 783.5867
125.7635, 783.8181
126.2456, 784.1898
126.7277, 783.3740
127.2098, 780.8745
127.6920, 777.3849
128.1741, 773.2789
128.6562, 768.4686
129.1383, 763.8882
129.6204, 761.1044
130.1025, 759.8896
130.5847, 758.4836
131.0668, 756.1454
131.5489, 753.0469
132.0310, 749.7252
132.5131, 745.9143
132.9952, 742.3148
133.4774, 739.5551
133.9595, 737.6409
134.4416, 735.9542
134.9237, 734.1373
135.4058, 732.2608
135.8879, 729.7318
136.3701, 725.1779
136.8522, 720.7582
137.3343, 717.6035
137.8164, 716.0052
138.2985, 715.7716
138.7806, 716.4699
139.2628, 717.6441
139.7449, 720.9339
140.2270, 726.2350
140.7091, 733.3940
141.1912, 742.4410
141.6733, 753.3401
142.1555, 765.8961
142.6376, 779.3026
143.1197, 794.4052
143.6018, 809.4578
144.0839, 823.9963
144.5660, 838.3947
145.0482, 853.2142
145.5303, 868.7247
146.0124, 884.9476
146.4945, 902.4413
146.9766, 922.1595
147.4587, 941.8228
147.9409, 960.0717
148.4230, 977.2396
148.9051, 994.9501
149.3872, 1014.721
149.8693, 1036.114
150.3514, 1056.630
150.8336, 1075.209
151.3157, 1093.511
151.7978, 1113.223
152.2799, 1134.650
152.7620, 1156.394
153.2441, 1177.339
153.7263, 1197.908
154.2084, 1219.251
154.6905, 1242.256
155.1726, 1266.044
155.6547, 1288.635
156.1368, 1309.054
156.6190, 1329.886
157.1011, 1352.957
157.5832, 1377.403
158.0653, 1401.910
158.5474, 1426.022
159.0295, 1449.625
159.5117, 1471.175
159.9938, 1490.563
160.4759, 1507.749
160.9580, 1523.310
161.4401, 1536.791
161.9222, 1546.988
162.4044, 1552.449
162.8865, 1552.486
163.3686, 1551.712
163.8507, 1553.129
164.3328, 1551.337
164.8149, 1543.734
165.2971, 1530.257
165.7792, 1512.554
166.2613, 1492.055
166.7434, 1467.421
167.2255, 1443.961
167.7076, 1423.625
168.1898, 1402.909
168.6719, 1379.240
169.1540, 1352.074
169.6361, 1323.149
170.1182, 1294.659
170.6003, 1266.488
171.0825, 1239.318
171.5646, 1212.678
172.0467, 1187.335
172.5288, 1164.164
173.0109, 1143.423
173.4930, 1124.833
173.9752, 1108.259
174.4573, 1093.503
174.9394, 1080.130
175.4215, 1067.974
175.9036, 1057.042
176.3857, 1047.377
176.8679, 1038.747
177.3500, 1031.776
177.8321, 1027.361
178.3142, 1025.606
178.7963, 1024.286
179.2784, 1021.596
179.7606, 1017.833
180.2427, 1015.628
180.7248, 1016.176
181.2069, 1018.289
181.6890, 1021.061
182.1711, 1024.469
182.6533, 1027.921
183.1354, 1030.513
183.6175, 1031.997
184.0996, 1034.614
184.5817, 1040.835
185.0638, 1047.180
185.5460, 1051.471
186.0281, 1053.263
186.5102, 1053.811
186.9923, 1054.935
187.4744, 1057.194
187.9565, 1058.481
188.4387, 1058.835
188.9208, 1058.109
189.4029, 1055.972
189.8850, 1052.355
190.3671, 1047.770
190.8492, 1043.208
191.3314, 1039.730
191.8135, 1034.374
192.2956, 1026.482
192.7777, 1017.172
193.2598, 1007.013
193.7419, 996.3134
194.2241, 985.6022
194.7062, 976.1790
195.1883, 969.6512
195.6704, 962.6021
196.1525, 954.4183
196.6346, 945.8763
197.1168, 937.8035
197.5989, 930.5485
198.0810, 924.0535
198.5631, 918.2231
199.0452, 913.1938
199.5273, 908.5689
200.0095, 903.8890
200.4916, 899.6363
200.9737, 896.7340
201.4558, 895.7485
201.9379, 896.0389
202.4200, 895.6785
202.9022, 893.9742
203.3843, 892.9112
203.8664, 893.2916
204.3485, 894.8701
204.8306, 896.9086
205.3127, 898.9543
205.7949, 901.5090
206.2770, 905.4587
206.7591, 911.0430
207.2412, 917.3254
207.7233, 923.7475
208.2054, 930.3965
208.6876, 937.6691
209.1697, 945.8423
209.6518, 954.7220
210.1339, 963.6500
210.6160, 972.2828
211.0981, 981.7715
211.5803, 993.2878
212.0624, 1006.810
212.5445, 1020.790
213.0266, 1034.477
213.5087, 1048.442
213.9908, 1063.687
214.4730, 1080.597
214.9551, 1097.016
215.4372, 1109.896
215.9193, 1118.695
216.4014, 1127.670
216.8836, 1140.455
217.3657, 1152.484
217.8478, 1160.981
218.3299, 1165.252
218.8120, 1165.582
219.2941, 1162.440
219.7763, 1156.117
220.2584, 1145.040
220.7405, 1127.128
221.2226, 1105.766
221.7047, 1082.762
222.1868, 1058.658
222.6690, 1033.341
223.1511, 1006.276
223.6332, 975.7775
224.1153, 947.1204
224.5974, 921.5544
225.0795, 897.2910
225.5617, 873.0527
226.0438, 848.4990
226.5259, 824.2352
227.0080, 801.1693
227.4901, 779.1061
227.9722, 759.1137
228.4544, 741.4249
228.9365, 725.3547
229.4186, 710.9282
229.9007, 698.0291
230.3828, 685.9609
230.8649, 673.5807
231.3471, 659.5749
231.8292, 647.4476
232.3113, 638.0812
232.7934, 629.9088
233.2755, 621.4633
233.7576, 612.4247
234.2398, 603.5820
234.7219, 596.3798
235.2040, 591.6303
235.6861, 587.3035
236.1682, 583.4841
236.6503, 580.0209
237.1325, 576.6663
237.6146, 573.3910
238.0967, 570.5940
238.5788, 569.0190
239.0609, 569.6624
239.5430, 569.1943
240.0252, 566.7079
240.5073, 563.4606
240.9894, 560.7025
241.4715, 558.7195
241.9536, 557.0464
242.4357, 555.0456
242.9179, 552.6295
243.4000, 550.3047
243.8821, 548.2024
244.3642, 546.1840
244.8463, 544.2214
245.3284, 542.3197
245.8106, 540.1483
246.2927, 537.1996
246.7748, 533.4479
247.2569, 529.6879
247.7390, 526.1591
248.2211, 522.6125
248.7033, 518.6620
249.1854, 514.2006
249.6675, 509.6601
250.1496, 505.2644
250.6317, 501.0255
251.1138, 497.5109
251.5960, 495.1634
252.0781, 493.4564
252.5602, 491.5883
253.0423, 489.4057
253.5244, 487.5947
254.0065, 487.0085
254.4887, 487.3217
254.9708, 487.7529
255.4529, 488.6416
255.9350, 489.3302
256.4171, 488.9754
256.8992, 487.5604
257.3813, 485.0785
257.8635, 481.3949
258.3456, 476.6297
258.8277, 470.6153
259.3098, 463.0714
259.7919, 454.4333
260.2740, 444.9569
260.7562, 434.3111
261.2383, 424.2705
261.7204, 415.8146
262.2025, 408.5656
262.6846, 402.1582
263.1667, 396.4062
263.6489, 391.5566
264.1310, 388.0526
264.6131, 386.0719
265.0952, 384.6670
265.5773, 383.5119
266.0594, 382.7071
266.5416, 382.3053
267.0237, 382.2055
267.5058, 382.8349
267.9879, 384.8743
268.4700, 388.4940
268.9521, 392.7438
269.4343, 398.0100
269.9164, 403.4388
270.3985, 408.2601
270.8806, 412.2497
271.3627, 416.0522
271.8448, 420.4530
272.3270, 425.5535
272.8091, 430.8164
273.2912, 436.2503
273.7733, 441.7304
274.2554, 447.0435
274.7375, 452.2124
275.2197, 457.6945
275.7018, 464.2882
276.1839, 472.2055
276.6660, 479.6662
277.1481, 485.4206
277.6302, 491.3706
278.1124, 498.3427
278.5945, 506.4455
279.0766, 515.3137
279.5587, 524.6111
280.0408, 534.3454
280.5229, 544.6437
281.0051, 555.6677
281.4872, 567.1622
281.9693, 579.1439
282.4514, 591.5154
282.9335, 604.1307
283.4156, 616.7587
283.8978, 629.3913
284.3799, 642.4588
284.8620, 656.3655
285.3441, 670.3328
285.8262, 684.3000
286.3083, 698.1135
286.7905, 711.6176
287.2726, 724.8146
287.7547, 737.6008
288.2368, 748.6970
288.7189, 757.5363
289.2010, 765.1180
289.6832, 772.9607
290.1653, 779.5439
290.6474, 782.5385
291.1295, 780.4252
291.6116, 774.0076
292.0938, 766.3398
292.5759, 756.3764
293.0580, 746.6436
293.5401, 738.3173
294.0222, 730.2161
294.5043, 720.7289
294.9865, 709.0651
295.4686, 696.5224
295.9507, 686.2338
296.4328, 678.8597
296.9149, 672.8488
297.3970, 667.4213
297.8792, 663.3354
298.3613, 661.5381
298.8434, 662.2288
299.3255, 664.4531
299.8076, 666.4930
300.2897, 667.4259
300.7719, 670.4219
301.2540, 676.5018
301.7361, 683.6852
302.2182, 690.8190
302.7003, 697.6845
303.1824, 704.8254
303.6646, 712.9277
304.1467, 722.0582
304.6288, 731.8773
305.1109, 742.7457
305.5930, 753.9991
306.0751, 765.9009
306.5573, 778.0358
307.0394, 789.4324
307.5215, 799.4344
308.0036, 808.1920
308.4857, 813.9531
308.9678, 817.3759
309.4500, 816.9359
309.9321, 811.4779
310.4142, 801.6986
310.8963, 789.1437
311.3784, 774.8914
311.8605, 756.5244
312.3427, 738.7087
312.8248, 712.1901
313.3069, 684.5726
313.7890, 655.3441
314.2711, 626.0441
314.7532, 598.2643
315.2354, 572.9631
315.7175, 549.5797
316.1996, 526.8873
316.6817, 504.6497
317.1638, 483.4572
317.6459, 462.7895
318.1281, 443.3312
318.6102, 425.8449
319.0923, 410.5436
319.5744, 397.0541
320.0565, 384.9283
320.5386, 374.7450
321.0208, 364.6826
321.5029, 353.6468
321.9850, 343.4603
322.4671, 335.5407
322.9492, 329.8415
323.4313, 325.0405
323.9135, 319.5461
324.3956, 313.0438
324.8777, 307.4953
325.3598, 303.7965
325.8419, 300.2065
326.3240, 295.7389
326.8062, 290.7406
327.2883, 286.2462
327.7704, 283.0962
328.2525, 281.2260
328.7346, 279.3441
329.2167, 277.4239
329.6989, 275.5139
330.1810, 273.6950
330.6631, 271.8788
331.1452, 269.8270
331.6273, 267.3327
332.1094, 264.7774
332.5916, 263.4520
333.0737, 264.2843
333.5558, 264.7990
334.0379, 264.4410
334.5200, 263.6875
335.0021, 262.9702
335.4843, 262.4293
335.9664, 261.6511
336.4485, 261.2576
336.9306, 260.2530
337.4127, 259.4586
337.8948, 258.7927
338.3770, 258.4341
338.8591, 258.6489
339.3412, 259.3765
339.8233, 260.1829
340.3055, 260.6051
340.7876, 260.5932
341.2697, 260.6934
341.7518, 261.2648
342.2339, 261.5801
342.7160, 261.2028
343.1982, 260.3354
343.6803, 259.4645
344.1624, 258.8698
344.6445, 258.5446
345.1266, 258.5371
345.6087, 259.3175
346.0909, 259.6195
346.5730, 258.7570
347.0551, 257.3542
347.5372, 256.2272
348.0193, 255.7382
348.5014, 255.5256
348.9836, 254.8249
349.4657, 253.3828
349.9478, 252.3190
350.4299, 252.2013
350.9120, 252.4035
351.3941, 252.6555
351.8763, 252.8858
352.3584, 252.7649
352.8405, 251.6192
353.3226, 249.3933
353.8047, 248.0522
354.2868, 248.5880
354.7690, 249.3347
355.2511, 249.4106
355.7332, 248.8131
356.2153, 247.7086
356.6974, 245.9687
357.1795, 243.7695
357.6617, 241.7769
358.1438, 240.0032
358.6259, 238.4601
359.1080, 237.3453
359.5901, 236.4241
360.0722, 235.3134
360.5544, 233.8730
361.0365, 232.1919
361.5186, 230.2840
362.0007, 228.1138
362.4828, 226.0773
362.9649, 224.5147
363.4471, 223.0597
363.9292, 221.2501
364.4113, 218.9696
364.8934, 216.6335
365.3755, 214.1978
365.8576, 211.8391
366.3398, 210.6729
366.8219, 211.4189
367.3040, 212.7612
367.7861, 213.7121
368.2682, 214.2564
368.7503, 213.5712
369.2325, 209.8491
369.7146, 205.1153
370.1967, 203.1916
370.6788, 204.7444
371.1609, 206.9735
371.6430, 207.9381
372.1252, 207.8570
372.6073, 207.4608
373.0894, 206.7800
373.5715, 205.8597
374.0536, 204.4431
374.5357, 202.6805
375.0179, 201.5570
375.5000, 201.8635
375.9821, 202.8320
376.4642, 202.6495
376.9463, 201.1118
377.4284, 199.1184
377.9106, 195.9394
378.3927, 192.7497
378.8748, 192.1553
379.3569, 195.0999
379.8390, 198.7463
380.3211, 199.2730
380.8033, 196.0060
381.2854, 193.4206
381.7675, 192.3328
382.2496, 191.6825
382.7317, 190.8523
383.2138, 189.7144
383.6960, 187.9374
384.1781, 184.9366
384.6602, 180.9509
385.1423, 179.3414
385.6244, 182.0009
386.1065, 184.4375
386.5887, 184.8885
387.0708, 184.1735
387.5529, 183.7839
388.0350, 184.3813
388.5171, 185.5029
388.9992, 186.1448
389.4814, 186.2056
389.9635, 185.8571
390.4456, 184.6557
390.9277, 183.3455
391.4098, 182.4994
391.8919, 182.2079
392.3741, 182.2356
392.8562, 182.3507
393.3383, 182.5484
393.8204, 182.8886
394.3025, 183.7068
394.7846, 184.3143
395.2668, 184.5856
395.7489, 184.4627
396.2310, 183.7818
396.7131, 182.3873
397.1952, 180.5815
397.6773, 179.4223
398.1595, 179.2328
398.6416, 179.1973
399.1237, 179.2772
399.6058, 179.4009
400.0879, 179.5775
400.5700, 179.7829
401.0522, 179.8553
401.5343, 179.5329
402.0164, 178.7305
402.4985, 178.0393
402.9806, 177.2916
403.4627, 176.8629
403.9449, 177.0739
404.4270, 177.7474
404.9091, 178.4444
405.3912, 178.9446
405.8733, 179.2462
406.3554, 179.3135
406.8376, 179.0720
407.3197, 178.7788
407.8018, 178.5532
408.2839, 178.3219
408.7660, 177.9342
409.2481, 177.2928
409.7303, 176.8107
410.2124, 177.0460
410.6945, 177.9435
411.1766, 178.6433
411.6587, 178.9651
412.1408, 179.0228
412.6230, 178.8037
413.1051, 178.3661
413.5872, 178.1666
414.0693, 178.5397
414.5514, 179.2159
415.0335, 179.8316
415.5157, 180.3796
415.9978, 180.7201
416.4799, 180.7098
416.9620, 180.4132
417.4441, 180.0627
417.9262, 179.4355
418.4084, 179.0624
418.8905, 179.4268
419.3726, 180.2856
419.8547, 180.9824
420.3368, 181.2617
420.8189, 181.4071
421.3011, 181.9249
421.7832, 182.9641
422.2653, 183.7223
422.7474, 184.2076
423.2295, 184.3153
423.7116, 183.5878
424.1938, 182.1977
424.6759, 181.2537
425.1580, 181.7059
425.6401, 183.4594
426.1222, 184.7619
426.6043, 185.1775
427.0865, 185.7202
427.5686, 186.8673
428.0507, 188.2228
428.5328, 189.1558
429.0149, 189.4357
429.4970, 189.4566
429.9792, 189.9426
430.4613, 191.2482
430.9434, 192.2513
431.4255, 192.9167
431.9076, 193.3745
432.3897, 193.5140
432.8719, 193.4831
433.3540, 193.6514
433.8361, 194.3014
434.3182, 195.4017
434.8003, 196.7560
435.2824, 198.4397
435.7646, 200.2798
436.2467, 202.2792
436.7288, 204.3631
437.2109, 206.4358
437.6930, 208.4681
438.1751, 210.5136
438.6573, 212.4813
439.1394, 214.3139
439.6215, 216.9770
440.1036, 221.3683
440.5857, 225.7843
441.0678, 228.9738
441.5500, 231.2161
442.0321, 233.6191
442.5142, 237.0406
442.9963, 240.8678
443.4784, 243.7522
443.9605, 245.4973
444.4427, 247.8795
444.9248, 252.2827
445.4069, 257.6327
445.8890, 261.8890
446.3711, 264.5409
446.8532, 267.3406
447.3354, 271.7092
447.8175, 276.8607
448.2996, 280.8615
448.7817, 283.1295
449.2638, 285.1703
449.7459, 288.6613
450.2281, 293.7177
450.7102, 298.4572
451.1923, 302.2177
451.6744, 306.1714
452.1565, 311.4392
452.6386, 317.5662
453.1208, 323.1142
453.6029, 327.3511
454.0850, 330.5618
454.5671, 333.5243
455.0492, 335.8733
455.5313, 338.4779
456.0135, 341.8226
456.4956, 345.1115
456.9777, 348.0877
457.4598, 350.4892
457.9419, 351.6986
458.4240, 351.0117
458.9062, 348.4041
459.3883, 345.7061
459.8704, 343.8353
460.3525, 340.7328
460.8346, 335.6856
461.3167, 329.2609
461.7989, 322.0327
462.2810, 314.1749
462.7631, 306.0360
463.2452, 298.2039
463.7273, 290.7951
464.2094, 282.9788
464.6916, 274.3431
465.1737, 265.5421
465.6558, 256.5266
466.1379, 247.6056
466.6200, 239.6407
467.1021, 233.5827
467.5843, 228.5685
468.0664, 222.8120
468.5485, 216.1456
469.0306, 209.7704
469.5127, 204.1136
469.9948, 199.1654
470.4770, 194.9315
470.9591, 191.4957
471.4412, 188.4659
471.9233, 185.9104
472.4054, 183.5620
472.8875, 180.8392
473.3697, 177.6077
473.8518, 174.4907
474.3339, 172.0361
474.8160, 170.2806
475.2981, 168.7603
475.7802, 167.7582
476.2624, 166.6930
476.7445, 165.2419
477.2266, 163.5437
477.7087, 161.8485
478.1908, 160.2394
478.6729, 158.7512
479.1551, 157.4562
479.6372, 156.4074
480.1193, 155.4323
480.6014, 154.5410
481.0835, 153.6982
481.5656, 152.8935
482.0478, 152.1230
482.5299, 151.3940
483.0120, 150.7248
483.4941, 150.0783
483.9762, 149.2850
484.4583, 148.0871
484.9405, 147.2888
485.4226, 147.6852
485.9047, 148.0780
486.3868, 147.3366
486.8689, 145.4036
487.3510, 143.4138
487.8332, 142.3129
488.3153, 141.9726
488.7974, 141.7909
489.2795, 141.8437
489.7616, 141.8179
490.2437, 141.6189
490.7259, 141.1908
491.2080, 140.3050
491.6901, 138.5832
492.1722, 137.0780
492.6543, 136.7725
493.1364, 137.3044
493.6186, 137.7081
494.1007, 137.7927
494.5828, 137.4396
495.0649, 136.2840
495.5470, 134.2014
496.0291, 132.9767
496.5113, 133.4435
496.9934, 134.0550
497.4755, 133.9194
497.9576, 133.1996
498.4397, 132.3168
498.9218, 131.4554
499.4040, 130.7581
499.8861, 130.6008
500.3682, 131.5665
500.8503, 131.9932
501.3324, 131.5575
501.8145, 130.9268
502.2967, 130.5390
502.7788, 130.3369
503.2609, 129.9462
503.7430, 129.0208
504.2251, 127.8040
504.7072, 127.3333
505.1894, 128.0261
505.6715, 128.5043
506.1536, 128.0465
506.6357, 127.4841
507.1178, 127.7040
507.5999, 128.7464
508.0821, 129.4198
508.5642, 128.2796
509.0463, 126.1052
509.5284, 125.4050
510.0105, 126.6347
510.4926, 127.9520
510.9748, 128.2047
511.4569, 127.7369
511.9390, 127.4115
512.4211, 127.3875
512.9032, 127.2972
513.3853, 126.7647
513.8674, 126.0979
514.3495, 125.9671
514.8317, 126.5175
515.3138, 127.0369
515.7959, 126.7138
516.2780, 125.4500
516.7601, 124.8569
517.2422, 125.4606
517.7244, 126.0272
518.2065, 126.0526
518.6886, 125.8117
519.1707, 125.7846
519.6528, 126.1269
520.1349, 126.5114
520.6171, 126.3656
521.0992, 125.4740
521.5813, 124.9386
522.0634, 125.2365
522.5455, 125.4274
523.0276, 125.0938
523.5098, 124.4186
523.9919, 123.7303
524.4740, 123.1172
524.9561, 122.7046
525.4382, 122.7857
525.9203, 123.3712
526.4025, 123.7774
526.8846, 123.7482
527.3667, 123.6185
527.8488, 123.7468
528.3309, 124.0868
528.8130, 124.3435
529.2952, 124.4664
529.7773, 124.4422
530.2594, 124.1087
530.7415, 123.5705
531.2236, 123.3637
531.7057, 123.8145
532.1879, 124.4577
532.6700, 124.3561
533.1521, 122.9770
533.6342, 122.0550
534.1163, 121.9950
534.5984, 122.0846
535.0806, 121.5896
535.5627, 120.8137
536.0448, 120.8628
536.5269, 122.5351
537.0090, 125.0111
537.4911, 125.6025
537.9733, 123.0276
538.4554, 121.4024
538.9375, 122.0775
539.4196, 123.0808
539.9017, 123.2220
540.3839, 122.5395
540.8660, 121.7457
541.3481, 121.3091
541.8302, 121.0626
542.3123, 120.5058
542.7944, 119.5537
543.2766, 119.0981
543.7587, 119.8782
544.2408, 121.0183
544.7229, 121.0725
545.2050, 119.8630
545.6871, 119.1947
546.1693, 120.4493
546.6514, 122.0798
547.1335, 122.2072
547.6156, 120.9082
548.0977, 119.5497
548.5798, 118.9145
549.0620, 118.8944
549.5441, 119.1280
550.0262, 120.3792
550.5083, 120.8323
550.9904, 119.5628
551.4725, 118.1852
551.9547, 118.1001
552.4368, 119.1442
552.9189, 120.1412
553.4010, 120.1892
553.8831, 119.5382
554.3652, 119.2468
554.8474, 119.5987
555.3295, 119.5978
555.8116, 118.4314
556.2937, 117.2079
556.7758, 116.8145
557.2579, 117.2616
557.7401, 117.7813
558.2222, 117.9694
558.7043, 117.9252
559.1864, 117.6628
559.6685, 117.1833
560.1506, 117.1845
560.6328, 118.2668
561.1149, 119.7855
561.5970, 120.2456
562.0791, 119.3575
562.5612, 118.5791
563.0433, 118.0699
563.5255, 117.8524
564.0076, 117.9289
564.4897, 118.3115
564.9718, 119.1420
565.4539, 120.5867
565.9360, 122.3002
566.4182, 123.0466
566.9003, 122.1077
567.3824, 121.5581
567.8645, 121.7052
568.3466, 122.0980
568.8287, 122.5167
569.3109, 122.9315
569.7930, 123.3702
570.2751, 123.9104
570.7572, 124.4276
571.2393, 124.4126
571.7214, 123.7522
572.2036, 123.9891
572.6857, 126.1600
573.1678, 128.8381
573.6499, 130.2140
574.1320, 130.3244
574.6141, 130.7153
575.0963, 132.1732
575.5784, 133.7854
576.0605, 134.5874
576.5426, 134.8232
577.0247, 135.5346
577.5068, 137.2541
577.9890, 139.2715
578.4711, 140.1705
578.9532, 139.1115
579.4353, 139.0894
579.9174, 140.9620
580.3995, 142.8792
580.8817, 143.8796
581.3638, 144.2705
581.8459, 144.7643
582.3280, 145.7058
582.8101, 146.8264
583.2922, 147.5524
583.7744, 147.8118
584.2565, 148.7443
584.7386, 150.7416
585.2207, 153.1262
585.7029, 155.6710
586.1850, 158.2199
586.6671, 160.3051
587.1492, 161.3587
587.6313, 162.5478
588.1135, 164.9595
588.5956, 168.1308
589.0777, 171.0662
589.5598, 173.5181
590.0419, 175.5421
590.5240, 177.3059
591.0062, 178.8576
591.4883, 178.8440
591.9704, 176.1289
592.4525, 173.4293
592.9346, 172.1111
593.4167, 170.8074
593.8989, 167.6616
594.3810, 162.4218
594.8631, 156.6408
595.3452, 151.8103
595.8273, 147.8916
596.3094, 144.3649
596.7916, 141.3277
597.2737, 138.4310
597.7558, 135.6375
598.2379, 132.8374
598.7200, 129.7757
599.2021, 126.3536
599.6843, 123.3739
600.1664, 121.5543
600.6485, 120.2554
601.1306, 118.3481
601.6127, 115.8796
602.0948, 114.0635
602.5770, 113.7251
603.0591, 114.2967
603.5412, 114.2158
604.0233, 113.0496
604.5054, 111.8945
604.9875, 110.4095
605.4697, 109.2283
605.9518, 108.9616
606.4339, 109.3433
606.9160, 109.6764
607.3981, 109.5817
607.8802, 109.1879
608.3624, 108.6307
608.8445, 107.8397
609.3266, 107.5023
609.8087, 108.0595
610.2908, 108.6649
610.7729, 108.7801
611.2551, 108.4563
611.7372, 107.7937
612.2193, 106.4346
612.7014, 105.2232
613.1835, 105.0132
613.6656, 105.3613
614.1478, 105.2165
614.6299, 104.3241
615.1120, 103.3176
615.5941, 102.8107
616.0762, 102.8041
616.5583, 103.0511
617.0405, 104.1461
617.5226, 104.7475
618.0047, 104.2867
618.4868, 103.4471
618.9689, 102.8661
619.4510, 102.6498
619.9332, 102.5437
620.4153, 102.3345
620.8974, 102.0648
621.3795, 101.8923
621.8616, 101.8269
622.3438, 101.8228
622.8259, 101.9579
623.3080, 102.0624
623.7901, 101.8405
624.2722, 101.2652
624.7543, 100.8995
625.2365, 101.1258
625.7186, 101.4236
626.2007, 101.2987
626.6828, 100.8818
627.1649, 100.5482
627.6470, 100.4506
628.1292, 100.6155
628.6113, 101.1972
629.0934, 102.5030
629.5755, 102.9320
630.0576, 101.3518
630.5397, 100.0801
631.0219, 100.0656
631.5040, 100.6593
631.9861, 100.9709
632.4682, 100.7432
632.9503, 100.2470
633.4324, 99.32668
633.9146, 98.33646
634.3967, 98.75919
634.8788, 100.8972
635.3609, 102.6381
635.8430, 102.6393
636.3251, 101.4366
636.8073, 100.5175
637.2894, 99.85651
637.7715, 99.46432
638.2536, 99.57589
638.7357, 99.76304
639.2178, 99.58518
639.7000, 99.18426
640.1821, 99.13821
640.6642, 99.80203
641.1463, 100.6225
641.6284, 100.2359
642.1105, 98.22787
642.5927, 97.26254
643.0748, 98.05006
643.5569, 99.32981
644.0390, 100.8678
644.5211, 102.2756
645.0032, 102.6767
645.4854, 101.5574
645.9675, 100.1666
646.4496, 99.08102
646.9317, 98.37336
647.4138, 98.37936
647.8959, 99.08533
648.3781, 99.64616
648.8602, 99.34818
649.3423, 98.47097
649.8244, 98.35728
650.3065, 99.90710
650.7886, 100.8779
651.2708, 100.6547
651.7529, 100.3215
652.2350, 100.7117
652.7171, 101.6281
653.1992, 102.3486
653.6813, 102.5101
654.1635, 102.2506
654.6456, 101.5986
655.1277, 100.6084
655.6098, 99.99060
656.0919, 99.92979
656.5740, 100.1237
657.0562, 100.3860
657.5383, 100.6995
658.0204, 100.9451
658.5025, 101.2074
658.9846, 101.2940
659.4667, 100.9494
659.9489, 100.5221
660.4310, 100.3639
660.9131, 100.5149
661.3952, 100.8488
661.8773, 101.2959
662.3594, 101.8169
662.8416, 102.3283
663.3237, 102.9073
663.8058, 103.1980
664.2879, 103.0750
664.7700, 102.6952
665.2521, 101.9342
665.7343, 100.9946
666.2164, 100.5675
666.6985, 101.0620
667.1806, 101.8337
667.6627, 102.7218
668.1448, 103.4890
668.6270, 103.4346
669.1091, 102.5009
669.5912, 101.7988
670.0733, 102.4237
670.5554, 104.0899
671.0375, 104.6947
671.5197, 103.2884
672.0018, 102.3666
672.4839, 102.2682
672.9660, 102.6228
673.4481, 103.3729
673.9302, 104.3665
674.4124, 105.2646
674.8945, 105.9181
675.3766, 106.3486
675.8587, 106.4830
676.3408, 106.3932
676.8229, 106.3934
677.3051, 106.5431
677.7872, 106.8606
678.2693, 107.4181
678.7514, 108.1807
679.2335, 108.7373
679.7156, 108.9360
680.1978, 109.1604
680.6799, 109.5418
681.1620, 109.9147
681.6441, 110.2059
682.1262, 110.3626
682.6083, 110.2442
683.0905, 109.6879
683.5726, 108.9835
684.0547, 108.7447
684.5368, 108.9710
685.0189, 109.0013
685.5010, 108.5934
685.9832, 108.2371
686.4653, 108.4272
686.9474, 109.0435
687.4295, 109.4309
687.9116, 109.1650
688.3937, 109.2306
688.8759, 110.5278
689.3580, 111.8862
689.8401, 111.8221
690.3222, 110.5337
690.8043, 109.5128
691.2864, 109.7772
691.7686, 110.7573
692.2507, 110.9738
692.7328, 110.2278
693.2149, 110.0157
693.6970, 110.7739
694.1791, 111.7584
694.6613, 112.6640
695.1434, 113.3912
695.6255, 113.6633
696.1076, 113.2425
696.5897, 112.7596
697.0718, 112.3194
697.5540, 112.0785
698.0361, 112.3599
698.5182, 113.0772
699.0003, 113.7451
699.4824, 114.0620
699.9645, 114.1601
700.4467, 114.3829
700.9288, 114.8236
701.4109, 115.0163
701.8930, 114.5284
702.3751, 114.2988
702.8572, 115.0743
703.3394, 116.3080
703.8215, 117.0735
704.3036, 117.1319
704.7857, 116.9178
705.2678, 116.4342
705.7499, 115.9590
706.2321, 115.9226
706.7142, 116.2955
707.1963, 116.6978
707.6784, 116.9136
708.1605, 117.1937
708.6426, 118.1724
709.1248, 120.3372
709.6069, 121.4365
710.0890, 120.3206
710.5711, 119.4842
711.0532, 119.9353
711.5353, 121.0760
712.0175, 122.2169
712.4996, 123.2381
712.9817, 123.9844
713.4638, 124.1558
713.9459, 124.1206
714.4280, 124.4318
714.9102, 125.0398
715.3923, 125.5895
715.8744, 125.9306
716.3565, 126.1273
716.8386, 126.2451
717.3207, 126.2426
717.8029, 126.4563
718.2850, 127.2022
718.7671, 127.7689
719.2492, 127.8338
719.7313, 127.7504
720.2134, 127.9390
720.6956, 128.4107
721.1777, 128.7269
721.6598, 128.0670
722.1419, 127.4935
722.6240, 128.9179
723.1061, 131.7379
723.5883, 133.3692
724.0704, 132.9930
724.5525, 132.1820
725.0346, 132.6238
725.5167, 134.2789
725.9988, 135.6130
726.4810, 136.5669
726.9631, 137.2694
727.4452, 137.6561
727.9273, 137.8827
728.4094, 137.9696
728.8915, 137.9932
729.3737, 138.1599
729.8558, 138.5878
730.3379, 139.1611
730.8200, 139.7995
731.3021, 140.4826
731.7842, 141.2103
732.2664, 141.9763
732.7485, 142.5072
733.2306, 142.4885
733.7127, 142.1904
734.1948, 142.7464
734.6769, 145.1582
735.1591, 146.5863
735.6412, 146.2115
736.1233, 145.6656
736.6054, 145.6799
737.0875, 146.1399
737.5696, 146.7604
738.0518, 147.4724
738.5339, 148.2193
739.0160, 149.0548
739.4981, 149.8593
739.9802, 150.4375
740.4623, 150.7727
740.9445, 150.7979
741.4266, 150.4229
741.9087, 149.9737
742.3908, 150.0197
742.8729, 150.5845
743.3550, 151.5568
743.8372, 153.7513
744.3193, 155.3620
744.8014, 155.2927
745.2835, 154.7549
745.7656, 155.2837
746.2477, 157.0132
746.7299, 158.3751
747.2120, 158.0703
747.6941, 157.2874
748.1762, 157.3413
748.6583, 158.0813
749.1404, 159.0656
749.6226, 160.1589
750.1047, 161.1959
750.5868, 162.0417
751.0689, 162.6728
751.5510, 162.7762
752.0331, 161.7145
752.5153, 161.3568
752.9974, 162.6213
753.4795, 164.1391
753.9616, 165.1012
754.4437, 165.5979
754.9258, 166.0274
755.4080, 166.4238
755.8901, 166.9531
756.3722, 167.9804
756.8543, 169.0879
757.3364, 169.4154
757.8185, 169.0645
758.3007, 169.1540
758.7828, 170.4115
759.2649, 172.1866
759.7470, 172.9800
760.2291, 172.4932
760.7112, 172.5224
761.1934, 173.4393
761.6755, 174.3609
762.1576, 174.8938
762.6397, 175.1888
763.1218, 175.3599
763.6039, 175.3891
764.0861, 175.5687
764.5682, 175.9357
765.0503, 176.5495
765.5324, 177.6098
766.0145, 178.9111
766.4966, 180.1381
766.9788, 181.1727
767.4609, 181.9258
767.9430, 182.2480
768.4251, 182.2346
768.9072, 182.2644
769.3893, 182.2256
769.8715, 182.8978
770.3536, 184.9648
770.8357, 187.1003
771.3178, 187.8644
771.7999, 187.5494
772.2820, 187.6799
772.7642, 188.8464
773.2463, 189.7838
773.7284, 189.6117
774.2105, 189.4856
774.6926, 190.6746
775.1747, 192.8528
775.6569, 194.8285
776.1390, 196.0161
776.6211, 196.7168
777.1032, 197.1710
777.5853, 197.4649
778.0674, 198.1246
778.5496, 199.2104
779.0317, 200.4863
779.5138, 201.9128
779.9959, 203.3577
780.4780, 204.5461
780.9601, 205.3369
781.4423, 206.4679
781.9244, 207.9621
782.4065, 209.7442
782.8886, 212.2786
783.3707, 214.7862
783.8528, 216.2637
784.3350, 216.7350
784.8171, 217.3074
785.2992, 218.6964
785.7813, 220.4949
786.2634, 222.2148
786.7455, 223.8987
787.2277, 225.5178
787.7098, 227.0791
788.1919, 229.3794
788.6740, 233.2012
789.1561, 237.9534
789.6382, 241.3792
790.1204, 242.7949
790.6025, 244.4919
791.0846, 246.5886
791.5667, 248.9734
792.0488, 251.6501
792.5309, 254.5622
793.0131, 257.5557
793.4952, 260.5451
793.9773, 264.1289
794.4594, 269.1914
794.9415, 274.4611
795.4236, 278.7083
795.9058, 282.1919
796.3879, 285.5821
796.8700, 289.1185
797.3521, 292.8041
797.8342, 296.5410
798.3163, 300.5025
798.7985, 305.7510
799.2806, 312.5558
799.7627, 319.0565
800.2448, 324.5319
800.7269, 330.1489
801.2090, 337.0412
801.6912, 345.0094
802.1733, 352.9227
802.6554, 360.3336
803.1375, 368.4036
803.6196, 377.1242
804.1017, 386.7392
804.5839, 397.3705
805.0660, 409.0206
805.5481, 421.4968
806.0302, 434.7857
806.5123, 449.1520
806.9944, 464.8636
807.4766, 481.8434
807.9587, 499.7236
808.4408, 518.5903
808.9229, 539.8801
809.4050, 564.0545
809.8871, 590.4668
810.3693, 618.1697
810.8514, 647.2187
811.3335, 681.0875
811.8156, 721.8065
812.2977, 764.1938
812.7798, 806.2641
813.2620, 850.9000
813.7441, 899.9486
814.2262, 952.9420
814.7083, 1008.961
815.1904, 1068.890
815.6725, 1129.057
816.1547, 1187.440
816.6368, 1245.332
817.1189, 1304.041
817.6010, 1363.846
818.0831, 1423.892
818.5652, 1483.908
819.0474, 1545.674
819.5295, 1611.158
820.0116, 1680.409
820.4937, 1753.909
820.9758, 1831.631
821.4579, 1913.723
821.9401, 2000.424
822.4222, 2091.153
822.9043, 2186.822
823.3864, 2286.867
823.8685, 2389.654
824.3506, 2495.410
824.8328, 2602.666
825.3149, 2715.710
825.7970, 2826.145
826.2791, 2933.716
826.7612, 3033.347
827.2433, 3118.305
827.7255, 3187.855
828.2076, 3232.018
828.6897, 3246.546
829.1718, 3228.277
829.6539, 3168.865
830.1360, 3071.056
830.6182, 2944.087
831.1003, 2791.603
831.5824, 2621.169
832.0645, 2440.982
832.5466, 2251.209
833.0287, 2064.829
833.5109, 1879.658
833.9930, 1706.098
834.4751, 1545.229
834.9572, 1398.893
835.4393, 1272.167
835.9214, 1162.508
836.4036, 1062.980
836.8857, 974.1122
837.3678, 894.1479
837.8499, 824.1612
838.3320, 761.9633
838.8141, 707.4062
839.2963, 659.4850
839.7784, 616.9056
840.2605, 579.2058
840.7426, 545.2072
841.2247, 514.0153
841.7068, 485.4883
842.1890, 459.5492
842.6711, 435.9781
843.1532, 414.5126
843.6353, 395.0197
844.1174, 377.1693
844.5995, 360.8088
845.0817, 345.8179
845.5638, 332.3478
846.0459, 320.9057
846.5280, 309.5925
847.0101, 298.1096
847.4922, 287.0385
847.9744, 276.2122
848.4565, 266.1519
848.9386, 257.8722
849.4207, 251.6998
849.9028, 245.5544
850.3849, 238.4153
850.8671, 231.6867
851.3492, 226.6160
851.8313, 222.2594
852.3134, 217.0819
852.7955, 211.0630
853.2776, 205.5275
853.7598, 201.4893
854.2419, 196.6656
854.7240, 193.9571
855.2061, 189.3138
855.6882, 185.8180
856.1703, 183.6524
856.6525, 181.6793
857.1346, 179.3455
857.6167, 176.5812
858.0988, 173.1807
858.5809, 168.9398
859.0630, 165.4161
859.5452, 162.7339
860.0273, 160.5568
860.5094, 159.1915
860.9915, 157.9892
861.4736, 156.3705
861.9557, 154.3919
862.4379, 152.4208
862.9200, 150.3497
863.4021, 148.5483
863.8842, 147.4527
864.3663, 146.4390
864.8484, 144.8443
865.3306, 142.8833
865.8127, 141.1877
866.2948, 140.0062
866.7769, 138.8892
867.2590, 137.3151
867.7411, 135.5385
868.2233, 134.0028
868.7054, 132.7510
869.1875, 132.0955
869.6696, 132.1321
870.1517, 132.1444
870.6339, 131.4563
871.1160, 130.1880
871.5981, 128.8241
872.0802, 127.2403
872.5623, 126.0096
873.0444, 125.3412
873.5266, 124.7811
874.0087, 123.9599
874.4908, 123.7150
874.9729, 122.8818
875.4550, 123.2979
875.9371, 123.5602
876.4193, 123.6401
876.9014, 123.4500
877.3835, 122.6274
877.8656, 121.7347
878.3477, 121.3773
878.8298, 121.5535
879.3120, 121.9186
879.7941, 122.4181
880.2762, 122.7378
880.7583, 122.3495
881.2404, 121.6705
881.7225, 121.5103
882.2047, 121.8179
882.6868, 121.9954
883.1689, 121.7849
883.6510, 121.4926
884.1331, 121.4832
884.6152, 121.7444
885.0974, 122.3240
885.5795, 123.3456
886.0616, 123.6736
886.5437, 122.7586
887.0258, 121.8000
887.5079, 121.7880
887.9901, 122.5216
888.4722, 123.2276
888.9543, 124.4076
889.4364, 124.5857
889.9185, 122.0268
890.4006, 120.4958
890.8828, 122.6630
891.3649, 125.9860
891.8470, 127.0362
892.3291, 125.6087
892.8112, 124.8337
893.2933, 126.4914
893.7755, 128.5771
894.2576, 130.1116
894.7397, 131.1865
895.2218, 131.7807
895.7039, 132.0268
896.1860, 132.2729
896.6682, 132.6912
897.1503, 133.1175
897.6324, 133.3026
898.1145, 133.6605
898.5966, 133.6146
899.0787, 134.0745
899.5609, 134.3499
900.0430, 134.3190
900.5251, 134.0798
901.0072, 133.6405
901.4893, 133.1569
901.9714, 133.4986
902.4536, 135.0082
902.9357, 136.0511
903.4178, 136.1991
903.8999, 136.3740
904.3820, 136.9409
904.8641, 137.8967
905.3463, 139.3994
905.8284, 141.5717
906.3105, 143.2062
906.7926, 143.6147
907.2747, 144.2459
907.7568, 146.3465
908.2390, 148.2098
908.7211, 148.2934
909.2032, 146.8033
909.6853, 144.7763
910.1674, 142.5215
910.6495, 140.0254
911.1317, 137.2473
911.6138, 134.2304
912.0959, 130.9676
912.5780, 127.5287
913.0601, 123.9974
913.5422, 120.4175
914.0244, 116.9866
914.5065, 113.8818
914.9886, 111.0070
915.4707, 107.9641
915.9528, 104.8852
916.4349, 102.6690
916.9171, 101.4568
917.3992, 100.5599
917.8813, 99.62759
918.3634, 98.73034
918.8455, 98.01478
919.3276, 97.50435
919.8098, 96.66685
920.2919, 95.17345
920.7740, 94.23649
921.2561, 94.64021
921.7382, 95.03696
922.2203, 94.03908
922.7025, 92.10880
923.1846, 91.07041
923.6667, 91.29668
924.1488, 91.58648
924.6309, 92.24636
925.1130, 92.47403
925.5952, 91.56237
926.0773, 90.22325
926.5594, 89.29107
927.0415, 88.84985
927.5236, 88.51008
928.0057, 88.04780
928.4879, 87.73169
928.9700, 87.91629
929.4521, 88.21717
929.9342, 88.24419
930.4163, 87.96875
930.8984, 87.32109
931.3806, 86.30904
931.8627, 85.54353
932.3448, 85.91909
932.8269, 86.80286
933.3090, 86.79502
933.7911, 86.10274
934.2733, 85.63660
934.7554, 85.56289
935.2375, 85.39555
935.7196, 84.77055
936.2017, 84.03218
936.6838, 84.05379
937.1660, 84.90314
937.6481, 85.00406
938.1302, 84.10592
938.6123, 83.60731
939.0944, 84.15172
939.5765, 84.88766
940.0587, 84.98769
940.5408, 84.50925
941.0229, 83.83031
941.5050, 82.32867
941.9871, 81.76713
942.4692, 83.02091
942.9514, 84.29074
943.4335, 84.98112
943.9156, 85.22400
944.3977, 85.04378
944.8798, 84.46268
945.3619, 84.17259
945.8441, 84.69685
946.3262, 85.03957
946.8083, 84.36799
947.2904, 83.78533
947.7725, 84.53905
948.2546, 86.07651
948.7368, 87.07015
949.2189, 87.12202
949.7010, 86.69063
950.1831, 85.65586
950.6652, 84.66309
951.1473, 84.33267
951.6295, 84.52908
952.1116, 85.32059
952.5937, 86.44124
953.0758, 86.81599
953.5579, 85.77158
954.0400, 84.26240
954.5222, 83.47175
955.0043, 83.28142
955.4864, 83.46854
955.9685, 83.96261
956.4506, 84.44393
956.9327, 84.81477
957.4149, 84.74526
957.8970, 83.77764
958.3791, 82.50401
958.8612, 83.14350
959.3433, 85.94382
959.8254, 86.77499
960.3076, 84.86277
960.7897, 83.25231
961.2718, 83.32004
961.7539, 84.12903
962.2360, 84.56485
962.7181, 84.63815
963.2003, 84.55280
963.6824, 84.21752
964.1645, 83.90052
964.6466, 83.38033
965.1287, 83.18936
965.6108, 83.89761
966.0930, 84.98196
966.5751, 85.76802
967.0572, 86.26476
967.5393, 86.18759
968.0214, 84.59801
968.5035, 83.64506
968.9857, 84.46183
969.4678, 85.62415
969.9499, 86.15847
970.4320, 86.13740
970.9141, 85.82620
971.3962, 85.21848
971.8784, 84.95011
972.3605, 85.81810
972.8426, 86.58049
973.3247, 86.10259
973.8068, 85.18525
974.2889, 84.81308
974.7711, 85.05605
975.2532, 85.58642
975.7353, 86.31554
976.2174, 86.85981
976.6995, 86.75432
977.1816, 86.33618
977.6638, 86.02091
978.1459, 85.80407
978.6280, 85.45885
979.1101, 85.04247
979.5922, 85.29140
980.0743, 86.85863
980.5565, 88.72737
981.0386, 89.00703
981.5207, 88.19980
982.0028, 88.21035
982.4849, 89.03067
982.9670, 89.48322
983.4492, 89.16619
983.9313, 88.91219
984.4134, 89.58096
984.8955, 90.79623
985.3776, 91.27416
985.8597, 90.98359
986.3419, 91.07351
986.8240, 91.75267
987.3061, 91.95667
987.7882, 91.06501
988.2703, 89.97267
988.7524, 89.72685
989.2346, 90.28909
989.7167, 91.36809
990.1988, 93.44797
990.6809, 94.52364
991.1630, 93.95780
991.6451, 93.21308
992.1273, 92.88404
992.6094, 92.90675
993.0915, 93.22305
993.5736, 93.84351
994.0557, 94.52587
994.5378, 95.22001
995.0200, 96.04691
995.5021, 97.48304
995.9842, 98.56050
996.4663, 98.27416
996.9484, 97.49784
997.4305, 97.76716
997.9127, 99.27989
998.3948, 100.6413
998.8769, 101.5443
999.3590, 102.3804
999.8411, 103.2347
1000.323, 104.1059
1000.805, 104.9795
1001.287, 105.8696
1001.770, 106.7263
1002.252, 107.5189
1002.734, 108.6364
1003.216, 110.3430
1003.698, 112.2950
1004.180, 114.3473
1004.662, 116.4913
1005.144, 118.8074
1005.627, 121.1952
1006.109, 123.2957
1006.591, 124.9615
1007.073, 126.8717
1007.555, 129.3620
1008.037, 132.4296
1008.519, 136.3850
1009.001, 140.7430
1009.483, 144.4770
1009.966, 147.7863
1010.448, 152.0159
1010.930, 157.8096
1011.412, 163.7078
1011.894, 167.8327
1012.376, 171.3608
1012.858, 176.1249
1013.340, 181.8624
1013.823, 188.0492
1014.305, 194.4473
1014.787, 200.5582
1015.269, 206.0360
1015.751, 211.5195
1016.233, 217.9914
1016.715, 225.0793
1017.197, 231.6802
1017.679, 237.8775
1018.162, 244.3358
1018.644, 251.1811
1019.126, 258.2736
1019.608, 265.5011
1020.090, 272.8006
1020.572, 280.2998
1021.054, 287.8280
1021.536, 294.4937
1022.018, 300.2805
1022.501, 305.3034
1022.983, 309.6290
1023.465, 313.2176
1023.947, 316.1051
1024.429, 318.0551
1024.911, 318.6117
1025.393, 317.7706
1025.875, 315.5980
1026.358, 312.1547
1026.840, 306.7651
1027.322, 299.1034
1027.804, 290.0645
1028.286, 280.1643
1028.768, 269.6856
1029.250, 259.2403
1029.732, 248.8145
1030.214, 239.0425
1030.697, 230.2165
1031.179, 220.9586
1031.661, 210.4708
1032.143, 200.3739
1032.625, 191.9141
1033.107, 184.7405
1033.589, 177.9581
1034.071, 171.6421
1034.553, 165.3253
1035.036, 158.4658
1035.518, 152.7355
1036.000, 149.1543
1036.482, 145.9366
1036.964, 141.5417
1037.446, 136.4766
1037.928, 132.3221
1038.410, 129.2537
1038.893, 126.4546
1039.375, 124.0469
1039.857, 121.7233
1040.339, 119.6379
1040.821, 117.3728
1041.303, 114.3688
1041.785, 110.9746
1042.267, 108.2313
1042.750, 106.2116
1043.232, 104.5999
1043.714, 104.0367
1044.196, 103.0171
1044.678, 100.8420
1045.160, 98.43374
1045.642, 96.15381
1046.124, 94.22913
1046.606, 93.26539
1047.089, 93.59030
1047.571, 93.62331
1048.053, 93.28349
1048.535, 92.52731
1049.017, 90.91826
1049.499, 89.27680
1049.981, 88.26243
1050.463, 87.68227
1050.945, 87.09493
1051.428, 86.47155
1051.910, 85.70812
1052.392, 84.49969
1052.874, 83.53633
1053.356, 83.34688
1053.838, 83.19107
1054.320, 82.39591
1054.802, 81.23902
1055.285, 80.31929
1055.767, 79.73777
1056.249, 79.28005
1056.731, 78.92260
1057.213, 78.63998
1057.695, 78.35286
1058.177, 78.20496
1058.659, 78.58707
1059.141, 79.08454
1059.624, 78.89857
1060.106, 77.89284
1060.588, 76.75337
1061.070, 75.32806
1061.552, 74.30172
1062.034, 74.09288
1062.516, 74.24783
1062.998, 74.68418
1063.480, 75.11252
1063.963, 75.02062
1064.445, 74.36116
1064.927, 73.82992
1065.409, 73.66838
1065.891, 73.69974
1066.373, 73.99156
1066.855, 74.31367
1067.337, 74.65234
1067.820, 74.81740
1068.302, 74.37430
1068.784, 73.37127
1069.266, 72.69632
1069.748, 72.74953
1070.230, 73.07642
1070.712, 73.95485
1071.194, 74.54859
1071.677, 73.91251
1072.159, 72.76697
1072.641, 72.25648
1073.123, 72.39487
1073.605, 72.25217
1074.087, 71.27987
1074.569, 70.48996
1075.051, 70.52700
1075.533, 70.73045
1076.016, 70.65042
1076.498, 70.43436
1076.980, 70.26877
1077.462, 70.19166
1077.944, 70.22266
1078.426, 70.40024
1078.908, 70.57146
1079.390, 70.76347
1079.873, 70.81695
1080.355, 70.51731
1080.837, 70.09802
1081.319, 69.79145
1081.801, 69.62212
1082.283, 69.60997
1082.765, 69.82213
1083.247, 69.78566
1083.729, 68.89243
1084.212, 68.15947
1084.694, 68.16141
1085.176, 68.63364
1085.658, 69.60908
1086.140, 70.72982
1086.622, 71.23292
1087.104, 70.91856
1087.586, 70.51053
1088.068, 70.33463
1088.551, 70.11148
1089.033, 69.48463
1089.515, 68.94890
1089.997, 69.08327
1090.479, 69.58012
1090.961, 69.80489
1091.443, 69.65498
1091.925, 69.53084
1092.408, 69.68547
1092.890, 69.75314
1093.372, 69.66871
1093.854, 69.36408
1094.336, 68.42250
1094.818, 67.42811
1095.300, 67.45252
1095.782, 68.42220
1096.265, 68.82890
1096.747, 67.88418
1097.229, 67.01421
1097.711, 66.69733
1098.193, 66.58616
1098.675, 66.40036
1099.157, 66.36228
1099.639, 66.97367
1100.121, 68.01393
1100.604, 68.47688
1101.086, 68.00718
1101.568, 67.41019
1102.050, 66.30101
1102.532, 65.84936
1103.014, 67.42425
1103.496, 69.14077
1103.978, 69.15846
1104.460, 67.93876
1104.943, 66.82796
1105.425, 65.91689
1105.907, 65.68413
1106.389, 66.93481
1106.871, 67.88284
1107.353, 67.86166
1107.835, 67.52064
1108.317, 67.18060
1108.800, 66.88799
1109.282, 66.68094
1109.764, 66.56170
1110.246, 66.53922
1110.728, 66.82912
1111.210, 66.89074
1111.692, 66.33011
1112.174, 65.89860
1112.656, 66.12786
1113.139, 66.56898
1113.621, 66.67922
1114.103, 66.47643
1114.585, 66.23402
1115.067, 65.83952
1115.549, 65.61299
1116.031, 65.53671
1116.513, 65.66587
1116.995, 66.30592
1117.478, 66.84978
1117.960, 66.66298
1118.442, 65.98216
1118.924, 65.55944
1119.406, 65.44807
1119.888, 65.40899
1120.370, 65.64521
1120.852, 65.46213
1121.335, 64.20828
1121.817, 63.44772
1122.299, 64.56065
1122.781, 66.39737
1123.263, 66.78842
1123.745, 65.69466
1124.227, 65.13702
1124.709, 65.33589
1125.192, 65.27550
1125.674, 64.77039
1126.156, 64.15263
1126.638, 63.47162
1127.120, 63.00215
1127.602, 63.08405
1128.084, 63.64931
1128.566, 64.40840
1129.048, 65.39256
1129.531, 66.40259
1130.013, 67.52679
1130.495, 67.87322
1130.977, 67.05478
1131.459, 66.11830
1131.941, 65.94579
1132.423, 65.24715
1132.905, 65.69766
1133.387, 64.71038
1133.870, 64.44044
1134.352, 64.85642
1134.834, 65.11147
1135.316, 65.04081
1135.798, 64.68639
1136.280, 64.04031
1136.762, 63.60131
1137.244, 64.09657
1137.727, 65.22316
1138.209, 66.19324
1138.691, 66.97261
1139.173, 67.45661
1139.655, 67.60322
1140.137, 67.07181
1140.619, 65.81988
1141.101, 64.82500
1141.583, 64.94463
1142.066, 65.54681
1142.548, 65.82628
1143.030, 65.79414
1143.512, 65.22442
1143.994, 64.41242
1144.476, 64.24641
1144.958, 64.74358
1145.440, 65.04076
1145.922, 64.68128
1146.405, 64.35835
1146.887, 64.95505
1147.369, 65.70861
1147.851, 65.74068
1148.333, 65.36427
1148.815, 64.89448
1149.297, 64.49038
1149.779, 64.43114
1150.262, 64.76046
1150.744, 65.05399
1151.226, 65.01114
1151.708, 64.96207
1152.190, 65.24942
1152.672, 65.48953
1153.154, 65.29060
1153.636, 64.87022
1154.119, 64.50932
1154.601, 64.26376
1155.083, 64.16082
1155.565, 64.26295
1156.047, 64.30708
1156.529, 64.06815
1157.011, 63.93142
1157.493, 64.22636
1157.975, 64.54362
1158.458, 64.45879
1158.940, 64.16259
1159.422, 64.03600
1159.904, 64.10279
1160.386, 64.46460
1160.868, 65.70116
1161.350, 66.34958
1161.832, 65.95900
1162.314, 65.33296
1162.797, 64.51327
1163.279, 63.89880
1163.761, 64.04832
1164.243, 64.75878
1164.725, 65.04443
1165.207, 64.70608
1165.689, 64.70150
1166.171, 65.29164
1166.654, 65.35583
1167.136, 64.39031
1167.618, 63.59634
1168.100, 63.84886
1168.582, 64.54249
1169.064, 64.62465
1169.546, 64.18324
1170.028, 63.97790
1170.510, 64.00733
1170.993, 64.45521
1171.475, 65.35139
1171.957, 66.02418
1172.439, 66.22781
1172.921, 65.96535
1173.403, 65.12740
1173.885, 64.25386
1174.367, 64.72746
1174.849, 64.41882
1175.332, 64.48599
1175.814, 65.11404
1176.296, 64.95325
1176.778, 65.68624
1177.260, 66.21647
1177.742, 66.01653
1178.224, 65.62457
1178.706, 65.57858
1179.189, 65.60355
1179.671, 65.34557
1180.153, 64.92754
1180.635, 64.36907
1181.117, 63.86031
1181.599, 63.90087
1182.081, 64.46227
1182.563, 64.77709
1183.046, 64.37017
1183.528, 64.04819
1184.010, 64.48046
1184.492, 64.93532
1184.974, 64.73430
1185.456, 64.44941
1185.938, 64.84538
1186.420, 65.62811
1186.902, 65.95261
1187.385, 65.65709
1187.867, 65.47484
1188.349, 65.77272
1188.831, 65.85532
1189.313, 65.19534
1189.795, 64.76830
1190.277, 65.37292
1190.759, 66.16302
1191.241, 66.32224
1191.724, 65.94578
1192.206, 65.34033
1192.688, 64.27077
1193.170, 64.01005
1193.652, 64.80417
1194.134, 65.69523
1194.616, 66.58188
1195.098, 67.25954
1195.581, 67.62727
1196.063, 67.66764
1196.545, 67.27316
1197.027, 67.46632
1197.509, 66.59387
1197.991, 67.13069
1198.473, 67.10467
1198.955, 66.46707
1199.438, 65.33873
1199.920, 63.84279
1200.402, 63.14206
1200.884, 64.07804
1201.366, 65.49811
1201.848, 65.94699
1202.330, 65.77242
1202.812, 65.50307
1203.294, 65.18009
1203.776, 64.81857
1204.259, 64.48617
1204.741, 64.33707
1205.223, 64.41102
1205.705, 64.66025
1206.187, 65.19134
1206.669, 65.53576
1207.151, 65.05658
1207.633, 64.60458
1208.116, 65.17820
1208.598, 65.90335
1209.080, 65.50608
1209.562, 64.41074
1210.044, 63.99767
1210.526, 64.55965
1211.008, 65.05811
1211.490, 65.39278
1211.973, 65.49933
1212.455, 65.04137
1212.937, 64.76435
1213.419, 65.31052
1213.901, 65.84328
1214.383, 65.43411
1214.865, 64.37059
1215.347, 63.57890
1215.829, 63.00916
1216.312, 63.10635
1216.794, 63.97996
1217.276, 65.09742
1217.758, 66.49574
1218.240, 67.22451
1218.722, 66.75817
1219.204, 65.88872
1219.686, 65.46546
1220.168, 65.37906
1220.651, 65.33354
1221.133, 65.37643
1221.615, 65.88664
1222.097, 66.67039
1222.579, 66.83097
1223.061, 66.30231
1223.543, 65.72984
1224.025, 65.42160
1224.508, 65.34134
1224.990, 65.69255
1225.472, 65.96283
1225.954, 65.55086
1226.436, 64.84685
1226.918, 64.17326
1227.400, 63.60685
1227.882, 63.09391
1228.365, 62.72900
1228.847, 62.95501
1229.329, 64.10722
1229.811, 64.94503
1230.293, 64.96568
1230.775, 64.84780
1231.257, 64.96614
1231.739, 64.84820
1232.221, 63.67485
1232.703, 62.46891
1233.186, 62.73234
1233.668, 64.19256
1234.150, 65.03970
1234.632, 65.18095
1235.114, 64.95638
1235.596, 64.17120
1236.078, 64.14257
1236.560, 65.35763
1237.043, 65.94273
1237.525, 64.69681
1238.007, 63.12926
1238.489, 63.33052
1238.971, 62.72610
1239.453, 64.26888
1239.935, 63.16819
1240.417, 63.22461
1240.900, 64.11388
1241.382, 63.99830
1241.864, 62.79420
1242.346, 62.35194
1242.828, 63.60217
1243.310, 64.91985
1243.792, 64.99344
1244.274, 64.63176
1244.756, 63.95947
1245.239, 63.66510
1245.721, 65.12151
1246.203, 66.98400
1246.685, 66.83321
1247.167, 64.93680
1247.649, 64.00528
1248.131, 64.86271
1248.613, 65.46757
1249.095, 65.40436
1249.578, 65.34267
1250.060, 65.55001
1250.542, 65.53559
1251.024, 65.02406
1251.506, 64.18370
1251.988, 63.09230
1252.470, 61.95287
1252.952, 61.52692
1253.435, 61.81697
1253.917, 63.09463
1254.399, 65.29315
1254.881, 65.99378
1255.363, 64.87225
1255.845, 63.98308
1256.327, 64.27682
1256.809, 64.94880
1257.292, 65.28712
1257.774, 65.47327
1258.256, 65.79967
1258.738, 66.09495
1259.220, 65.96168
1259.702, 65.70563
1260.184, 66.05782
1260.666, 66.77911
1261.148, 66.81955
1261.630, 65.88831
1262.113, 65.14897
1262.595, 65.25333
1263.077, 65.26671
1263.559, 64.73307
1264.041, 64.28563
1264.523, 64.29716
1265.005, 64.47007
1265.487, 64.52825
1265.970, 64.73105
1266.452, 64.79588
1266.934, 65.23292
1267.416, 65.63554
1267.898, 66.04337
1268.380, 66.08057
1268.862, 65.69717
1269.344, 65.14114
1269.827, 64.48624
1270.309, 64.10927
1270.791, 64.29832
1271.273, 64.76009
1271.755, 65.12125
1272.237, 65.44094
1272.719, 65.89713
1273.201, 66.34661
1273.683, 66.45092
1274.166, 66.35268
1274.648, 66.51968
1275.130, 66.93352
1275.612, 66.97095
1276.094, 66.30151
1276.576, 65.67774
1277.058, 65.27117
1277.540, 65.14293
1278.022, 65.79649
1278.505, 66.20984
1278.987, 65.12505
1279.469, 63.92371
1279.951, 64.50151
1280.433, 66.24662
1280.915, 66.50381
1281.397, 64.98166
1281.879, 64.37926
1282.362, 64.78682
1282.844, 65.05986
1283.326, 65.01068
1283.808, 65.14203
1284.290, 65.65823
1284.772, 66.17315
1285.254, 66.34223
1285.736, 66.16613
##END=
